X-ray (ID 01) / Crystal angle ?_c	X-ray (ID 01) / Impulse Imp
?_c/°	Imp/# / s

3.0	14447
3.1	14413
3.2	14542
3.3	14538
3.4	14650
3.5	14672
3.6	14795
3.7	14851
3.8	14974
3.9	15030
4.0	15067
4.1	15093
4.2	15132
4.3	15140
4.4	15104
4.5	14894
4.6	14623
4.7	14181
4.8	13561
4.9	13047
5.0	12472
5.1	12030
5.2	11508
5.3	11057
5.4	10557
5.5	10181
5.6	9619
5.7	9096
5.8	8486
5.9	7826
6.0	6839
6.1	6000
6.2	5431
6.3	4845
6.4	4331
6.5	4028
6.6	3601
6.7	3250
6.8	2952
6.9	2658
7.0	2476
7.1	2335
7.2	2145
7.3	2048
7.4	1922
7.5	1809
7.6	1756
7.7	1741
7.8	1704
7.9	1643
8.0	1568
8.1	1561
8.2	1484
8.3	1466
8.4	1414
8.5	1342
8.6	1358
8.7	1364
8.8	1276
8.9	1208
9.0	1234
9.1	1149
9.2	1185
9.3	1138
9.4	1088
9.5	1068
9.6	1111
9.7	1047
9.8	1044
9.9	997
10.0	991
10.1	992
10.2	987
10.3	997
10.4	989
10.5	954
10.6	963
10.7	926
10.8	978
10.9	959
11.0	922
11.1	900
11.2	940
11.3	923
11.4	938
11.5	941
11.6	979
11.7	932
11.8	949
11.9	913
12.0	912
12.1	940
12.2	962
12.3	945
12.4	873
12.5	898
12.6	927
12.7	895
12.8	894
12.9	924
13.0	927
13.1	901
13.2	858
13.3	848
13.4	811
13.5	836
13.6	771
13.7	819
13.8	841
13.9	804
14.0	754
14.1	782
14.2	801
14.3	779
14.4	768
14.5	788
14.6	791
14.7	742
14.8	755
14.9	725
15.0	714
15.1	715
15.2	729
15.3	722
15.4	693
15.5	707
15.6	707
15.7	716
15.8	706
15.9	679
16.0	678
16.1	667
16.2	661
16.3	634
16.4	658
16.5	663
16.6	649
16.7	671
16.8	654
16.9	617
17.0	659
17.1	647
17.2	645
17.3	613
17.4	631
17.5	646
17.6	642
17.7	609
17.8	602
17.9	628
18.0	622
18.1	581
18.2	602
18.3	587
18.4	609
18.5	598
18.6	626
18.7	623
18.8	667
18.9	664
19.0	684
19.1	690
19.2	828
19.3	964
19.4	987
19.5	951
19.6	810
19.7	811
19.8	959
19.9	1207
20.0	1564
20.1	2216
20.2	3137
20.3	3547
20.4	2468
20.5	2089
20.6	1753
20.7	1313
20.8	993
20.9	945
21.0	895
21.1	894
21.2	936
21.3	969
21.4	1223
21.5	1766
21.6	2299
21.7	2589
21.8	2100
21.9	1648
22.0	1758
22.1	2362
22.2	3609
22.3	5224
22.4	8822
22.5	11056
22.6	10550
22.7	7983
22.8	5528
22.9	4041
23.0	2624
23.1	1467
23.2	973
23.3	779
23.4	683
23.5	623
23.6	564
23.7	508
23.8	501
23.9	516
24.0	427
24.1	458
24.2	404
24.3	425
24.4	427
24.5	407
24.6	395
24.7	349
24.8	356
24.9	343
25.0	348
25.1	333
25.2	327
25.3	344
25.4	318
25.5	305
25.6	335
25.7	315
25.8	310
25.9	320
26.0	313
26.1	301
26.2	291
26.3	281
26.4	283
26.5	271
26.6	282
26.7	279
26.8	271
26.9	292
27.0	270
27.1	263
27.2	252
27.3	240
27.4	267
27.5	247
27.6	248
27.7	220
27.8	226
27.9	227
28.0	225
28.1	229
28.2	224
28.3	219
28.4	224
28.5	209
28.6	215
28.7	193
28.8	216
28.9	209
29.0	214
29.1	207
29.2	205
29.3	197
29.4	215
29.5	183
29.6	201
29.7	182
29.8	204
29.9	188
30.0	190
30.1	188
30.2	174
30.3	177
30.4	176
30.5	177
30.6	205
30.7	189
30.8	176
30.9	168
31.0	193
31.1	164
31.2	164
31.3	151
31.4	164
31.5	160
31.6	170
31.7	163
31.8	167
31.9	162
32.0	154
32.1	162
32.2	158
32.3	168
32.4	157
32.5	161
32.6	154
32.7	160
32.8	149
32.9	164
33.0	151
33.1	154
33.2	151
33.3	150
33.4	139
33.5	142
33.6	157
33.7	144
33.8	144
33.9	143
34.0	139
34.1	144
34.2	139
34.3	141
34.4	144
34.5	131
34.6	139
34.7	138
34.8	147
34.9	141
35.0	144
35.1	146
35.2	133
35.3	135
35.4	132
35.5	132
35.6	117
35.7	140
35.8	137
35.9	129
36.0	131
36.1	144
36.2	131
36.3	130
36.4	124
36.5	137
36.6	130
36.7	124
36.8	117
36.9	134
37.0	140
37.1	115
37.2	121
37.3	122
37.4	112
37.5	127
37.6	120
37.7	126
37.8	127
37.9	105
38.0	128
38.1	111
38.2	118
38.3	131
38.4	111
38.5	115
38.6	123
38.7	120
38.8	122
38.9	119
39.0	110
39.1	125
39.2	115
39.3	110
39.4	107
39.5	118
39.6	120
39.7	127
39.8	113
39.9	111
40.0	120
40.1	123
40.2	128
40.3	127
40.4	118
40.5	127
40.6	119
40.7	118
40.8	117
40.9	127
41.0	127
41.1	115
41.2	103
41.3	122
41.4	116
41.5	126
41.6	116
41.7	92
41.8	126
41.9	122
42.0	114
42.1	116
42.2	116
42.3	115
42.4	124
42.5	121
42.6	129
42.7	145
42.8	146
42.9	155
43.0	153
43.1	147
43.2	132
43.3	146
43.4	170
43.5	231
43.6	360
43.7	506
43.8	496
43.9	310
44.0	202
44.1	187
44.2	144
44.3	144
44.4	137
44.5	127
44.6	125
44.7	140
44.8	119
44.9	135
45.0	131
45.1	124
45.2	123
45.3	123
45.4	120
45.5	120
45.6	116
45.7	130
45.8	127
45.9	124
46.0	130
46.1	122
46.2	137
46.3	126
46.4	120
46.5	121
46.6	130
46.7	127
46.8	114
46.9	115
47.0	110
47.1	142
47.2	123
47.3	132
47.4	133
47.5	132
47.6	137
47.7	151
47.8	132
47.9	127
48.0	120
48.1	124
48.2	133
48.3	135
48.4	137
48.5	153
48.6	138
48.7	146
48.8	163
48.9	186
49.0	243
49.1	290
49.2	315
49.3	278
49.4	273
49.5	294
49.6	374
49.7	597
49.8	1090
49.9	1695
50.0	1810
50.1	1588
50.2	1017
50.3	696
50.4	403
50.5	316
50.6	211
50.7	165
50.8	160
50.9	131
51.0	138
51.1	135
51.2	134
51.3	140
51.4	133
51.5	132
51.6	137
51.7	124
51.8	119
51.9	127
52.0	118
52.1	125
52.2	125
52.3	116
52.4	115
52.5	117
52.6	121
52.7	117
52.8	110
52.9	116
53.0	121
53.1	105
53.2	115
53.3	121
53.4	115
53.5	121
53.6	119
53.7	114
53.8	117
53.9	117
54.0	111
54.1	108
54.2	115
54.3	100
54.4	113
54.5	110
54.6	115
54.7	105
54.8	107
54.9	129
55.0	102
55.1	109
55.2	125
55.3	114
55.4	113
55.5	94
55.6	102
55.7	109
55.8	124
55.9	125
56.0	107
56.1	107
56.2	115
56.3	113
56.4	106
56.5	111
56.6	107
56.7	99
56.8	114
56.9	120
57.0	115
57.1	108
57.2	125
57.3	116
57.4	106
57.5	119
57.6	115
57.7	107
57.8	111
57.9	122
58.0	105
58.1	126
58.2	115
58.3	115
58.4	112
58.5	107
58.6	111
58.7	117
58.8	109
58.9	99
59.0	110
59.1	98
59.2	112
59.3	120
59.4	112
59.5	118
59.6	113
59.7	110
59.8	110
59.9	105
60.0	111
