X-ray (ID 01) / Crystal angle ?_c	X-ray (ID 01) / Impulse Imp
?_c/°	Imp/# / s

3.0	14501
3.1	14455
3.2	14515
3.3	14570
3.4	14637
3.5	14767
3.6	14737
3.7	14812
3.8	14870
3.9	14972
4.0	15008
4.1	15010
4.2	15066
4.3	15120
4.4	15115
4.5	15037
4.6	14901
4.7	14672
4.8	14254
4.9	13667
5.0	13073
5.1	12457
5.2	11883
5.3	11331
5.4	10775
5.5	10288
5.6	9708
5.7	9157
5.8	8598
5.9	7960
6.0	7016
6.1	6130
6.2	5465
6.3	4901
6.4	4373
6.5	3976
6.6	3561
6.7	3158
6.8	2849
6.9	2617
7.0	2315
7.1	2095
7.2	1894
7.3	1850
7.4	1676
7.5	1609
7.6	1529
7.7	1449
7.8	1368
7.9	1321
8.0	1263
8.1	1220
8.2	1167
8.3	1137
8.4	1052
8.5	1030
8.6	948
8.7	953
8.8	915
8.9	851
9.0	833
9.1	800
9.2	775
9.3	728
9.4	669
9.5	660
9.6	669
9.7	590
9.8	566
9.9	538
10.0	524
10.1	508
10.2	517
10.3	490
10.4	480
10.5	444
10.6	450
10.7	441
10.8	447
10.9	460
11.0	432
11.1	448
11.2	425
11.3	407
11.4	404
11.5	397
11.6	378
11.7	393
11.8	358
11.9	366
12.0	363
12.1	360
12.2	356
12.3	343
12.4	367
12.5	362
12.6	376
12.7	350
12.8	350
12.9	317
13.0	340
13.1	328
13.2	320
13.3	346
13.4	338
13.5	333
13.6	323
13.7	346
13.8	319
13.9	329
14.0	327
14.1	310
14.2	344
14.3	473
14.4	809
14.5	841
14.6	625
14.7	384
14.8	347
14.9	335
15.0	316
15.1	308
15.2	302
15.3	313
15.4	307
15.5	317
15.6	321
15.7	312
15.8	448
15.9	1321
16.0	2600
16.1	2665
16.2	1150
16.3	424
16.4	323
16.5	297
16.6	292
16.7	261
16.8	281
16.9	267
17.0	283
17.1	251
17.2	246
17.3	243
17.4	237
17.5	235
17.6	269
17.7	253
17.8	258
17.9	256
18.0	232
18.1	233
18.2	262
18.3	226
18.4	243
18.5	248
18.6	218
18.7	237
18.8	223
18.9	231
19.0	238
19.1	221
19.2	249
19.3	223
19.4	232
19.5	222
19.6	211
19.7	234
19.8	230
19.9	223
20.0	209
20.1	224
20.2	212
20.3	204
20.4	220
20.5	222
20.6	223
20.7	215
20.8	217
20.9	214
21.0	212
21.1	194
21.2	194
21.3	182
21.4	211
21.5	195
21.6	188
21.7	203
21.8	180
21.9	198
22.0	196
22.1	196
22.2	191
22.3	213
22.4	184
22.5	202
22.6	187
22.7	187
22.8	172
22.9	189
23.0	178
23.1	186
23.2	192
23.3	182
23.4	183
23.5	179
23.6	169
23.7	174
23.8	164
23.9	167
24.0	167
24.1	179
24.2	176
24.3	185
24.4	180
24.5	161
24.6	178
24.7	177
24.8	167
24.9	167
25.0	171
25.1	164
25.2	170
25.3	171
25.4	161
25.5	164
25.6	152
25.7	165
25.8	159
25.9	160
26.0	156
26.1	172
26.2	154
26.3	166
26.4	153
26.5	160
26.6	168
26.7	152
26.8	161
26.9	156
27.0	172
27.1	153
27.2	158
27.3	147
27.4	154
27.5	157
27.6	163
27.7	159
27.8	156
27.9	149
28.0	153
28.1	144
28.2	144
28.3	142
28.4	156
28.5	143
28.6	165
28.7	151
28.8	148
28.9	150
29.0	151
29.1	160
29.2	156
29.3	155
29.4	155
29.5	166
29.6	195
29.7	324
29.8	334
29.9	216
30.0	185
30.1	176
30.2	157
30.3	142
30.4	130
30.5	159
30.6	154
30.7	140
30.8	155
30.9	151
31.0	147
31.1	150
31.2	146
31.3	140
31.4	160
31.5	149
31.6	156
31.7	154
31.8	161
31.9	141
32.0	152
32.1	158
32.2	153
32.3	128
32.4	163
32.5	141
32.6	147
32.7	152
32.8	151
32.9	149
33.0	148
33.1	217
33.2	542
33.3	880
33.4	912
33.5	505
33.6	232
33.7	161
33.8	150
33.9	143
34.0	140
34.1	141
34.2	134
34.3	141
34.4	129
34.5	137
34.6	130
34.7	129
34.8	133
34.9	121
35.0	115
35.1	127
35.2	130
35.3	112
35.4	120
35.5	129
35.6	125
35.7	121
35.8	124
35.9	127
36.0	123
36.1	123
36.2	138
36.3	130
36.4	107
36.5	127
36.6	120
36.7	127
36.8	126
36.9	116
37.0	115
37.1	105
37.2	122
37.3	107
37.4	113
37.5	112
37.6	103
37.7	114
37.8	92
37.9	101
38.0	104
38.1	115
38.2	108
38.3	103
38.4	116
38.5	114
38.6	94
38.7	99
38.8	115
38.9	114
39.0	101
39.1	97
39.2	118
39.3	108
39.4	103
39.5	103
39.6	106
39.7	100
39.8	112
39.9	117
40.0	113
40.1	110
40.2	93
40.3	105
40.4	105
40.5	123
40.6	119
40.7	100
40.8	109
40.9	110
41.0	105
41.1	98
41.2	119
41.3	113
41.4	115
41.5	108
41.6	101
41.7	100
41.8	106
41.9	110
42.0	111
42.1	108
42.2	101
42.3	115
42.4	103
42.5	97
42.6	107
42.7	108
42.8	111
42.9	103
43.0	92
43.1	104
43.2	99
43.3	93
43.4	98
43.5	100
43.6	96
43.7	92
43.8	99
43.9	109
44.0	97
44.1	96
44.2	101
44.3	100
44.4	99
44.5	102
44.6	105
44.7	115
44.8	98
44.9	109
45.0	102
45.1	99
45.2	100
45.3	107
45.4	101
45.5	111
45.6	108
45.7	115
45.8	104
45.9	90
46.0	96
46.1	117
46.2	101
46.3	98
46.4	101
46.5	104
46.6	111
46.7	103
46.8	94
46.9	96
47.0	104
47.1	111
47.2	94
47.3	107
47.4	103
47.5	94
47.6	119
47.7	112
47.8	107
47.9	135
48.0	163
48.1	156
48.2	129
48.3	115
48.4	117
48.5	104
48.6	110
48.7	105
48.8	110
48.9	107
49.0	111
49.1	96
49.2	117
49.3	110
49.4	96
49.5	98
49.6	122
49.7	97
49.8	105
49.9	101
50.0	96
50.1	104
50.2	110
50.3	110
50.4	104
50.5	109
50.6	108
50.7	119
50.8	112
50.9	102
51.0	102
51.1	109
51.2	110
51.3	100
51.4	126
51.5	115
51.6	104
51.7	118
51.8	106
51.9	114
52.0	114
52.1	112
52.2	112
52.3	133
52.4	108
52.5	113
52.6	100
52.7	110
52.8	114
52.9	118
53.0	119
53.1	115
53.2	102
53.3	112
53.4	110
53.5	103
53.6	119
53.7	119
53.8	123
53.9	118
54.0	102
54.1	125
54.2	113
54.3	112
54.4	119
54.5	122
54.6	122
54.7	139
54.8	125
54.9	123
55.0	128
55.1	154
55.2	190
55.3	387
55.4	435
55.5	376
55.6	304
55.7	183
55.8	133
55.9	112
56.0	131
56.1	128
56.2	120
56.3	121
56.4	119
56.5	121
56.6	108
56.7	113
56.8	105
56.9	117
57.0	117
57.1	118
57.2	113
57.3	121
57.4	127
57.5	125
57.6	128
57.7	119
57.8	132
57.9	105
58.0	115
58.1	126
58.2	113
58.3	107
58.4	123
58.5	111
58.6	115
58.7	126
58.8	112
58.9	117
59.0	116
59.1	120
59.2	114
59.3	120
59.4	106
59.5	115
59.6	125
59.7	127
59.8	122
59.9	120
60.0	118
