X-ray (ID 01) / Crystal angle ?_c	X-ray (ID 01) / Impulse Imp
?_c/°	Imp/# / s

3.0	14610
3.1	14556
3.2	14608
3.3	14659
3.4	14789
3.5	14787
3.6	14862
3.7	14891
3.8	14971
3.9	15027
4.0	15069
4.1	15077
4.2	15169
4.3	15148
4.4	15120
4.5	14965
4.6	14734
4.7	14340
4.8	13857
4.9	13279
5.0	12681
5.1	12159
5.2	11589
5.3	11074
5.4	10542
5.5	10021
5.6	9494
5.7	9016
5.8	8420
5.9	7545
6.0	6443
6.1	5817
6.2	5128
6.3	4698
6.4	4222
6.5	3797
6.6	3361
6.7	2994
6.8	2682
6.9	2437
7.0	2181
7.1	2036
7.2	1818
7.3	1733
7.4	1628
7.5	1563
7.6	1462
7.7	1439
7.8	1347
7.9	1289
8.0	1257
8.1	1183
8.2	1126
8.3	1078
8.4	1037
8.5	997
8.6	1012
8.7	921
8.8	883
8.9	865
9.0	826
9.1	750
9.2	697
9.3	716
9.4	669
9.5	625
9.6	590
9.7	610
9.8	557
9.9	508
10.0	511
10.1	477
10.2	476
10.3	448
10.4	444
10.5	443
10.6	412
10.7	444
10.8	430
10.9	426
11.0	424
11.1	451
11.2	464
11.3	466
11.4	435
11.5	376
11.6	370
11.7	385
11.8	346
11.9	353
12.0	377
12.1	397
12.2	426
12.3	520
12.4	669
12.5	770
12.6	767
12.7	660
12.8	485
12.9	408
13.0	339
13.1	317
13.2	286
13.3	286
13.4	289
13.5	284
13.6	299
13.7	281
13.8	281
13.9	278
14.0	282
14.1	275
14.2	263
14.3	278
14.4	259
14.5	280
14.6	246
14.7	283
14.8	287
14.9	258
15.0	261
15.1	263
15.2	252
15.3	239
15.4	262
15.5	255
15.6	231
15.7	247
15.8	222
15.9	224
16.0	237
16.1	243
16.2	229
16.3	240
16.4	246
16.5	219
16.6	217
16.7	229
16.8	209
16.9	229
17.0	216
17.1	213
17.2	231
17.3	230
17.4	216
17.5	226
17.6	214
17.7	193
17.8	226
17.9	223
18.0	210
18.1	209
18.2	231
18.3	223
18.4	232
18.5	201
18.6	196
18.7	224
18.8	216
18.9	200
19.0	199
19.1	199
19.2	224
19.3	198
19.4	228
19.5	212
19.6	218
19.7	194
19.8	205
19.9	202
20.0	206
20.1	210
20.2	215
20.3	179
20.4	200
20.5	200
20.6	200
20.7	199
20.8	202
20.9	195
21.0	187
21.1	203
21.2	204
21.3	215
21.4	188
21.5	212
21.6	204
21.7	187
21.8	187
21.9	209
22.0	193
22.1	183
22.2	205
22.3	210
22.4	208
22.5	187
22.6	184
22.7	185
22.8	179
22.9	190
23.0	187
23.1	201
23.2	199
23.3	207
23.4	200
23.5	213
23.6	201
23.7	230
23.8	275
23.9	287
24.0	434
24.1	581
24.2	597
24.3	499
24.4	399
24.5	311
24.6	245
24.7	238
24.8	239
24.9	234
25.0	184
25.1	191
25.2	190
25.3	191
25.4	195
25.5	179
25.6	203
25.7	188
25.8	179
25.9	194
26.0	219
26.1	213
26.2	219
26.3	236
26.4	230
26.5	254
26.6	274
26.7	367
26.8	568
26.9	928
27.0	1490
27.1	1814
27.2	1646
27.3	1222
27.4	827
27.5	481
27.6	332
27.7	257
27.8	221
27.9	203
28.0	189
28.1	184
28.2	166
28.3	168
28.4	168
28.5	170
28.6	161
28.7	175
28.8	165
28.9	144
29.0	142
29.1	142
29.2	161
29.3	150
29.4	153
29.5	155
29.6	168
29.7	154
29.8	137
29.9	150
30.0	169
30.1	151
30.2	133
30.3	142
30.4	151
30.5	141
30.6	145
30.7	143
30.8	144
30.9	129
31.0	132
31.1	145
31.2	133
31.3	147
31.4	133
31.5	123
31.6	143
31.7	146
31.8	130
31.9	126
32.0	141
32.1	123
32.2	146
32.3	127
32.4	126
32.5	120
32.6	116
32.7	135
32.8	126
32.9	127
33.0	123
33.1	118
33.2	129
33.3	130
33.4	128
33.5	129
33.6	125
33.7	122
33.8	124
33.9	129
34.0	124
34.1	118
34.2	118
34.3	124
34.4	125
34.5	118
34.6	125
34.7	114
34.8	131
34.9	109
35.0	119
35.1	119
35.2	122
35.3	122
35.4	121
35.5	115
35.6	115
35.7	124
35.8	119
35.9	105
36.0	137
36.1	112
36.2	122
36.3	123
36.4	114
36.5	121
36.6	123
36.7	114
36.8	114
36.9	116
37.0	114
37.1	127
37.2	116
37.3	112
37.4	110
37.5	113
37.6	108
37.7	123
37.8	114
37.9	111
38.0	116
38.1	108
38.2	114
38.3	103
38.4	115
38.5	115
38.6	119
38.7	117
38.8	120
38.9	106
39.0	116
39.1	114
39.2	115
39.3	120
39.4	109
39.5	111
39.6	117
39.7	102
39.8	103
39.9	102
40.0	106
40.1	100
40.2	106
40.3	118
40.4	119
40.5	120
40.6	113
40.7	111
40.8	95
40.9	110
41.0	113
41.1	111
41.2	113
41.3	118
41.4	108
41.5	106
41.6	110
41.7	107
41.8	102
41.9	98
42.0	111
42.1	101
42.2	110
42.3	107
42.4	99
42.5	112
42.6	110
42.7	94
42.8	109
42.9	120
43.0	116
43.1	123
43.2	120
43.3	98
43.4	101
43.5	113
43.6	103
43.7	94
43.8	107
43.9	105
44.0	128
44.1	149
44.2	148
44.3	127
44.4	135
44.5	117
44.6	115
44.7	102
44.8	109
44.9	109
45.0	108
45.1	114
45.2	114
45.3	112
45.4	104
45.5	113
45.6	92
45.7	112
45.8	96
45.9	104
46.0	106
46.1	104
46.2	106
46.3	99
46.4	111
46.5	107
46.6	97
46.7	105
46.8	94
46.9	86
47.0	90
47.1	95
47.2	113
47.3	101
47.4	106
47.5	97
47.6	104
47.7	104
47.8	104
47.9	112
48.0	101
48.1	105
48.2	117
48.3	99
48.4	105
48.5	116
48.6	99
48.7	109
48.8	113
48.9	109
49.0	102
49.1	89
49.2	113
49.3	103
49.4	99
49.5	112
49.6	122
49.7	104
49.8	107
49.9	94
50.0	100
50.1	94
50.2	94
50.3	93
50.4	100
50.5	103
50.6	99
50.7	115
50.8	104
50.9	108
51.0	99
51.1	96
51.2	114
51.3	98
51.4	120
51.5	105
51.6	93
51.7	103
51.8	104
51.9	97
52.0	125
52.1	94
52.2	108
52.3	101
52.4	94
52.5	100
52.6	104
52.7	108
52.8	116
52.9	107
53.0	109
53.1	103
53.2	125
53.3	94
53.4	110
53.5	110
53.6	111
53.7	105
53.8	110
53.9	119
54.0	101
54.1	105
54.2	104
54.3	110
54.4	120
54.5	103
54.6	102
54.7	122
54.8	113
54.9	102
55.0	106
55.1	116
55.2	107
55.3	100
55.4	96
55.5	119
55.6	100
55.7	116
55.8	118
55.9	110
56.0	104
56.1	103
56.2	105
56.3	107
56.4	111
56.5	123
56.6	120
56.7	108
56.8	113
56.9	107
57.0	113
57.1	101
57.2	112
57.3	114
57.4	123
57.5	129
57.6	157
57.7	163
57.8	168
57.9	151
58.0	129
58.1	127
58.2	113
58.3	128
58.4	118
58.5	118
58.6	112
58.7	131
58.8	124
58.9	118
59.0	126
59.1	125
59.2	105
59.3	113
59.4	120
59.5	118
59.6	98
59.7	122
59.8	128
59.9	106
60.0	122
