X-ray (ID 01) / Crystal angle ?_c	X-ray (ID 01) / Impulse Imp
?_c/°	Imp/# / s

3.0	14420
3.1	14434
3.2	14408
3.3	14510
3.4	14580
3.5	14635
3.6	14732
3.7	14782
3.8	14890
3.9	14953
4.0	14994
4.1	15018
4.2	15095
4.3	15108
4.4	15096
4.5	14971
4.6	14697
4.7	14469
4.8	13920
4.9	13432
5.0	12830
5.1	12261
5.2	11700
5.3	11176
5.4	10565
5.5	10142
5.6	9534
5.7	9073
5.8	8503
5.9	7752
6.0	6564
6.1	5937
6.2	5271
6.3	4804
6.4	4240
6.5	3873
6.6	3458
6.7	3113
6.8	2781
6.9	2530
7.0	2289
7.1	2139
7.2	1951
7.3	1835
7.4	1729
7.5	1582
7.6	1532
7.7	1467
7.8	1379
7.9	1354
8.0	1304
8.1	1218
8.2	1198
8.3	1147
8.4	1105
8.5	1069
8.6	996
8.7	952
8.8	935
8.9	938
9.0	869
9.1	864
9.2	817
9.3	812
9.4	752
9.5	720
9.6	710
9.7	675
9.8	691
9.9	672
10.0	651
10.1	619
10.2	618
10.3	568
10.4	566
10.5	546
10.6	570
10.7	561
10.8	581
10.9	579
11.0	584
11.1	552
11.2	550
11.3	548
11.4	568
11.5	539
11.6	523
11.7	516
11.8	496
11.9	512
12.0	522
12.1	498
12.2	486
12.3	477
12.4	491
12.5	492
12.6	467
12.7	484
12.8	450
12.9	457
13.0	439
13.1	426
13.2	432
13.3	419
13.4	439
13.5	419
13.6	400
13.7	410
13.8	385
13.9	396
14.0	382
14.1	400
14.2	404
14.3	385
14.4	371
14.5	376
14.6	359
14.7	355
14.8	371
14.9	372
15.0	367
15.1	348
15.2	337
15.3	351
15.4	329
15.5	332
15.6	349
15.7	340
15.8	323
15.9	343
16.0	337
16.1	314
16.2	327
16.3	318
16.4	309
16.5	324
16.6	310
16.7	320
16.8	297
16.9	315
17.0	328
17.1	305
17.2	299
17.3	311
17.4	303
17.5	297
17.6	289
17.7	299
17.8	280
17.9	303
18.0	289
18.1	292
18.2	303
18.3	299
18.4	277
18.5	273
18.6	293
18.7	272
18.8	258
18.9	276
19.0	281
19.1	272
19.2	268
19.3	278
19.4	256
19.5	269
19.6	283
19.7	262
19.8	264
19.9	286
20.0	261
20.1	261
20.2	268
20.3	255
20.4	278
20.5	367
20.6	628
20.7	845
20.8	864
20.9	749
21.0	422
21.1	293
21.2	269
21.3	293
21.4	267
21.5	269
21.6	249
21.7	260
21.8	265
21.9	238
22.0	257
22.1	231
22.2	257
22.3	238
22.4	242
22.5	254
22.6	258
22.7	309
22.8	746
22.9	1743
23.0	2424
23.1	2765
23.2	2392
23.3	977
23.4	358
23.5	272
23.6	243
23.7	263
23.8	238
23.9	241
24.0	217
24.1	232
24.2	233
24.3	222
24.4	208
24.5	225
24.6	216
24.7	200
24.8	215
24.9	193
25.0	202
25.1	191
25.2	201
25.3	190
25.4	185
25.5	209
25.6	201
25.7	177
25.8	181
25.9	194
26.0	172
26.1	182
26.2	201
26.3	193
26.4	188
26.5	179
26.6	170
26.7	176
26.8	165
26.9	171
27.0	168
27.1	172
27.2	189
27.3	164
27.4	178
27.5	162
27.6	169
27.7	170
27.8	153
27.9	162
28.0	149
28.1	174
28.2	158
28.3	162
28.4	151
28.5	159
28.6	149
28.7	155
28.8	146
28.9	156
29.0	140
29.1	154
29.2	157
29.3	160
29.4	159
29.5	176
29.6	147
29.7	157
29.8	149
29.9	147
30.0	142
30.1	141
30.2	164
30.3	152
30.4	138
30.5	151
30.6	138
30.7	138
30.8	131
30.9	144
31.0	137
31.1	146
31.2	143
31.3	137
31.4	137
31.5	142
31.6	140
31.7	145
31.8	128
31.9	134
32.0	152
32.1	136
32.2	151
32.3	134
32.4	126
32.5	141
32.6	136
32.7	143
32.8	138
32.9	147
33.0	127
33.1	130
33.2	141
33.3	133
33.4	137
33.5	135
33.6	126
33.7	142
33.8	122
33.9	116
34.0	135
34.1	130
34.2	131
34.3	138
34.4	120
34.5	129
34.6	120
34.7	129
34.8	125
34.9	143
35.0	144
35.1	131
35.2	125
35.3	118
35.4	117
35.5	124
35.6	128
35.7	122
35.8	113
35.9	112
36.0	108
36.1	114
36.2	124
36.3	112
36.4	134
36.5	125
36.6	126
36.7	130
36.8	118
36.9	123
37.0	111
37.1	127
37.2	114
37.3	116
37.4	111
37.5	111
37.6	114
37.7	108
37.8	126
37.9	120
38.0	122
38.1	116
38.2	112
38.3	108
38.4	113
38.5	113
38.6	101
38.7	125
38.8	109
38.9	121
39.0	128
39.1	111
39.2	112
39.3	106
39.4	102
39.5	116
39.6	108
39.7	115
39.8	113
39.9	105
40.0	118
40.1	104
40.2	108
40.3	110
40.4	106
40.5	107
40.6	119
40.7	116
40.8	108
40.9	120
41.0	103
41.1	99
41.2	124
41.3	124
41.4	109
41.5	119
41.6	112
41.7	115
41.8	112
41.9	107
42.0	114
42.1	116
42.2	112
42.3	112
42.4	112
42.5	104
42.6	105
42.7	101
42.8	112
42.9	114
43.0	97
43.1	105
43.2	103
43.3	110
43.4	113
43.5	99
43.6	96
43.7	104
43.8	114
43.9	118
44.0	110
44.1	115
44.2	128
44.3	116
44.4	130
44.5	129
44.6	167
44.7	226
44.8	200
44.9	146
45.0	123
45.1	128
45.2	122
45.3	110
45.4	123
45.5	103
45.6	102
45.7	120
45.8	105
45.9	111
46.0	112
46.1	124
46.2	123
46.3	121
46.4	124
46.5	115
46.6	99
46.7	91
46.8	101
46.9	123
47.0	109
47.1	110
47.2	119
47.3	113
47.4	111
47.5	111
47.6	131
47.7	112
47.8	101
47.9	119
48.0	104
48.1	121
48.2	115
48.3	111
48.4	107
48.5	116
48.6	106
48.7	113
48.8	129
48.9	116
49.0	114
49.1	107
49.2	115
49.3	117
49.4	104
49.5	100
49.6	102
49.7	105
49.8	116
49.9	129
50.0	119
50.1	135
50.2	116
50.3	122
50.4	118
50.5	122
50.6	132
50.7	121
50.8	186
50.9	260
51.0	503
51.1	639
51.2	523
51.3	389
51.4	244
51.5	163
51.6	133
51.7	125
51.8	120
51.9	132
52.0	132
52.1	128
52.2	116
52.3	124
52.4	116
52.5	113
52.6	107
52.7	116
52.8	129
52.9	113
53.0	99
53.1	123
53.2	120
53.3	106
53.4	118
53.5	122
53.6	106
53.7	108
53.8	116
53.9	111
54.0	99
54.1	115
54.2	119
54.3	114
54.4	108
54.5	109
54.6	101
54.7	107
54.8	103
54.9	125
55.0	110
55.1	115
55.2	110
55.3	109
55.4	114
55.5	105
55.6	116
55.7	109
55.8	107
55.9	109
56.0	113
56.1	113
56.2	104
56.3	98
56.4	113
56.5	115
56.6	93
56.7	110
56.8	119
56.9	108
57.0	123
57.1	94
57.2	118
57.3	119
57.4	106
57.5	115
57.6	113
57.7	124
57.8	110
57.9	113
58.0	113
58.1	121
58.2	117
58.3	100
58.4	105
58.5	108
58.6	120
58.7	123
58.8	117
58.9	115
59.0	108
59.1	126
59.2	104
59.3	105
59.4	110
59.5	116
59.6	112
59.7	100
59.8	111
59.9	111
60.0	112
